#  E (eV)   dos(E)     Int dos(E) EFermi =   17.647 eV
  -9.236  0.2807E-06  0.2807E-08
  -9.226  0.3159E-06  0.5966E-08
  -9.216  0.3553E-06  0.9519E-08
  -9.206  0.3993E-06  0.1351E-07
  -9.196  0.4485E-06  0.1800E-07
  -9.186  0.5035E-06  0.2303E-07
  -9.176  0.5649E-06  0.2868E-07
  -9.166  0.6333E-06  0.3501E-07
  -9.156  0.7096E-06  0.4211E-07
  -9.146  0.7945E-06  0.5005E-07
  -9.136  0.8891E-06  0.5894E-07
  -9.126  0.9942E-06  0.6889E-07
  -9.116  0.1111E-05  0.8000E-07
  -9.106  0.1241E-05  0.9241E-07
  -9.096  0.1385E-05  0.1063E-06
  -9.086  0.1545E-05  0.1217E-06
  -9.076  0.1723E-05  0.1389E-06
  -9.066  0.1919E-05  0.1581E-06
  -9.056  0.2137E-05  0.1795E-06
  -9.046  0.2378E-05  0.2033E-06
  -9.036  0.2644E-05  0.2297E-06
  -9.026  0.2938E-05  0.2591E-06
  -9.016  0.3263E-05  0.2917E-06
  -9.006  0.3622E-05  0.3280E-06
  -8.996  0.4018E-05  0.3681E-06
  -8.986  0.4454E-05  0.4127E-06
  -8.976  0.4934E-05  0.4620E-06
  -8.966  0.5463E-05  0.5166E-06
  -8.956  0.6044E-05  0.5771E-06
  -8.946  0.6683E-05  0.6439E-06
  -8.936  0.7386E-05  0.7178E-06
  -8.926  0.8157E-05  0.7993E-06
  -8.916  0.9003E-05  0.8894E-06
  -8.906  0.9931E-05  0.9887E-06
  -8.896  0.1095E-04  0.1098E-05
  -8.886  0.1206E-04  0.1219E-05
  -8.876  0.1328E-04  0.1352E-05
  -8.866  0.1461E-04  0.1498E-05
  -8.856  0.1607E-04  0.1658E-05
  -8.846  0.1766E-04  0.1835E-05
  -8.836  0.1939E-04  0.2029E-05
  -8.826  0.2128E-04  0.2242E-05
  -8.816  0.2335E-04  0.2475E-05
  -8.806  0.2559E-04  0.2731E-05
  -8.796  0.2804E-04  0.3011E-05
  -8.786  0.3070E-04  0.3318E-05
  -8.776  0.3359E-04  0.3654E-05
  -8.766  0.3674E-04  0.4022E-05
  -8.756  0.4015E-04  0.4423E-05
  -8.746  0.4386E-04  0.4862E-05
  -8.736  0.4787E-04  0.5340E-05
  -8.726  0.5222E-04  0.5863E-05
  -8.716  0.5694E-04  0.6432E-05
  -8.706  0.6204E-04  0.7052E-05
  -8.696  0.6756E-04  0.7728E-05
  -8.686  0.7352E-04  0.8463E-05
  -8.676  0.7996E-04  0.9263E-05
  -8.666  0.8691E-04  0.1013E-04
  -8.656  0.9441E-04  0.1108E-04
  -8.646  0.1025E-03  0.1210E-04
  -8.636  0.1112E-03  0.1321E-04
  -8.626  0.1206E-03  0.1442E-04
  -8.616  0.1307E-03  0.1573E-04
  -8.606  0.1415E-03  0.1714E-04
  -8.596  0.1532E-03  0.1867E-04
  -8.586  0.1657E-03  0.2033E-04
  -8.576  0.1792E-03  0.2212E-04
  -8.566  0.1936E-03  0.2406E-04
  -8.556  0.2090E-03  0.2615E-04
  -8.546  0.2256E-03  0.2840E-04
  -8.536  0.2433E-03  0.3084E-04
  -8.526  0.2623E-03  0.3346E-04
  -8.516  0.2825E-03  0.3629E-04
  -8.506  0.3042E-03  0.3933E-04
  -8.496  0.3273E-03  0.4260E-04
  -8.486  0.3520E-03  0.4612E-04
  -8.476  0.3783E-03  0.4990E-04
  -8.466  0.4063E-03  0.5397E-04
  -8.456  0.4362E-03  0.5833E-04
  -8.446  0.4680E-03  0.6301E-04
  -8.436  0.5018E-03  0.6803E-04
  -8.426  0.5377E-03  0.7340E-04
  -8.416  0.5759E-03  0.7916E-04
  -8.406  0.6164E-03  0.8533E-04
  -8.396  0.6594E-03  0.9192E-04
  -8.386  0.7050E-03  0.9897E-04
  -8.376  0.7533E-03  0.1065E-03
  -8.366  0.8045E-03  0.1146E-03
  -8.356  0.8586E-03  0.1231E-03
  -8.346  0.9159E-03  0.1323E-03
  -8.336  0.9764E-03  0.1421E-03
  -8.326  0.1040E-02  0.1525E-03
  -8.316  0.1108E-02  0.1635E-03
  -8.306  0.1179E-02  0.1753E-03
  -8.296  0.1254E-02  0.1879E-03
  -8.286  0.1333E-02  0.2012E-03
  -8.276  0.1417E-02  0.2154E-03
  -8.266  0.1504E-02  0.2304E-03
  -8.256  0.1596E-02  0.2464E-03
  -8.246  0.1693E-02  0.2633E-03
  -8.236  0.1795E-02  0.2813E-03
  -8.226  0.1902E-02  0.3003E-03
  -8.216  0.2014E-02  0.3204E-03
  -8.206  0.2132E-02  0.3417E-03
  -8.196  0.2255E-02  0.3643E-03
  -8.186  0.2384E-02  0.3881E-03
  -8.176  0.2519E-02  0.4133E-03
  -8.166  0.2660E-02  0.4399E-03
  -8.156  0.2807E-02  0.4680E-03
  -8.146  0.2961E-02  0.4976E-03
  -8.136  0.3122E-02  0.5288E-03
  -8.126  0.3290E-02  0.5617E-03
  -8.116  0.3465E-02  0.5964E-03
  -8.106  0.3647E-02  0.6328E-03
  -8.096  0.3837E-02  0.6712E-03
  -8.086  0.4035E-02  0.7116E-03
  -8.076  0.4240E-02  0.7540E-03
  -8.066  0.4454E-02  0.7985E-03
  -8.056  0.4676E-02  0.8453E-03
  -8.046  0.4907E-02  0.8943E-03
  -8.036  0.5146E-02  0.9458E-03
  -8.026  0.5394E-02  0.9997E-03
  -8.016  0.5651E-02  0.1056E-02
  -8.006  0.5917E-02  0.1115E-02
  -7.996  0.6193E-02  0.1177E-02
  -7.986  0.6478E-02  0.1242E-02
  -7.976  0.6773E-02  0.1310E-02
  -7.966  0.7078E-02  0.1381E-02
  -7.956  0.7392E-02  0.1455E-02
  -7.946  0.7717E-02  0.1532E-02
  -7.936  0.8052E-02  0.1612E-02
  -7.926  0.8398E-02  0.1696E-02
  -7.916  0.8753E-02  0.1784E-02
  -7.906  0.9120E-02  0.1875E-02
  -7.896  0.9497E-02  0.1970E-02
  -7.886  0.9885E-02  0.2069E-02
  -7.876  0.1028E-01  0.2172E-02
  -7.866  0.1069E-01  0.2279E-02
  -7.856  0.1111E-01  0.2390E-02
  -7.846  0.1155E-01  0.2505E-02
  -7.836  0.1199E-01  0.2625E-02
  -7.826  0.1244E-01  0.2749E-02
  -7.816  0.1291E-01  0.2879E-02
  -7.806  0.1338E-01  0.3012E-02
  -7.796  0.1387E-01  0.3151E-02
  -7.786  0.1437E-01  0.3295E-02
  -7.776  0.1488E-01  0.3444E-02
  -7.766  0.1540E-01  0.3598E-02
  -7.756  0.1593E-01  0.3757E-02
  -7.746  0.1647E-01  0.3922E-02
  -7.736  0.1703E-01  0.4092E-02
  -7.726  0.1759E-01  0.4268E-02
  -7.716  0.1817E-01  0.4449E-02
  -7.706  0.1875E-01  0.4637E-02
  -7.696  0.1935E-01  0.4830E-02
  -7.686  0.1995E-01  0.5030E-02
  -7.676  0.2057E-01  0.5236E-02
  -7.666  0.2120E-01  0.5448E-02
  -7.656  0.2183E-01  0.5666E-02
  -7.646  0.2248E-01  0.5891E-02
  -7.636  0.2313E-01  0.6122E-02
  -7.626  0.2380E-01  0.6360E-02
  -7.616  0.2447E-01  0.6605E-02
  -7.606  0.2515E-01  0.6856E-02
  -7.596  0.2584E-01  0.7115E-02
  -7.586  0.2654E-01  0.7380E-02
  -7.576  0.2725E-01  0.7653E-02
  -7.566  0.2797E-01  0.7932E-02
  -7.556  0.2869E-01  0.8219E-02
  -7.546  0.2942E-01  0.8513E-02
  -7.536  0.3016E-01  0.8815E-02
  -7.526  0.3090E-01  0.9124E-02
  -7.516  0.3166E-01  0.9441E-02
  -7.506  0.3241E-01  0.9765E-02
  -7.496  0.3318E-01  0.1010E-01
  -7.486  0.3395E-01  0.1044E-01
  -7.476  0.3472E-01  0.1078E-01
  -7.466  0.3550E-01  0.1114E-01
  -7.456  0.3629E-01  0.1150E-01
  -7.446  0.3707E-01  0.1187E-01
  -7.436  0.3787E-01  0.1225E-01
  -7.426  0.3867E-01  0.1264E-01
  -7.416  0.3947E-01  0.1303E-01
  -7.406  0.4027E-01  0.1343E-01
  -7.396  0.4108E-01  0.1385E-01
  -7.386  0.4189E-01  0.1426E-01
  -7.376  0.4270E-01  0.1469E-01
  -7.366  0.4351E-01  0.1513E-01
  -7.356  0.4433E-01  0.1557E-01
  -7.346  0.4514E-01  0.1602E-01
  -7.336  0.4596E-01  0.1648E-01
  -7.326  0.4678E-01  0.1695E-01
  -7.316  0.4760E-01  0.1742E-01
  -7.306  0.4842E-01  0.1791E-01
  -7.296  0.4924E-01  0.1840E-01
  -7.286  0.5006E-01  0.1890E-01
  -7.276  0.5088E-01  0.1941E-01
  -7.266  0.5169E-01  0.1993E-01
  -7.256  0.5251E-01  0.2045E-01
  -7.246  0.5333E-01  0.2099E-01
  -7.236  0.5414E-01  0.2153E-01
  -7.226  0.5495E-01  0.2208E-01
  -7.216  0.5576E-01  0.2263E-01
  -7.206  0.5657E-01  0.2320E-01
  -7.196  0.5738E-01  0.2377E-01
  -7.186  0.5818E-01  0.2436E-01
  -7.176  0.5898E-01  0.2495E-01
  -7.166  0.5978E-01  0.2554E-01
  -7.156  0.6057E-01  0.2615E-01
  -7.146  0.6136E-01  0.2676E-01
  -7.136  0.6215E-01  0.2738E-01
  -7.126  0.6293E-01  0.2801E-01
  -7.116  0.6371E-01  0.2865E-01
  -7.106  0.6449E-01  0.2930E-01
  -7.096  0.6526E-01  0.2995E-01
  -7.086  0.6603E-01  0.3061E-01
  -7.076  0.6679E-01  0.3128E-01
  -7.066  0.6755E-01  0.3195E-01
  -7.056  0.6830E-01  0.3263E-01
  -7.046  0.6905E-01  0.3333E-01
  -7.036  0.6980E-01  0.3402E-01
  -7.026  0.7054E-01  0.3473E-01
  -7.016  0.7127E-01  0.3544E-01
  -7.006  0.7200E-01  0.3616E-01
  -6.996  0.7273E-01  0.3689E-01
  -6.986  0.7345E-01  0.3762E-01
  -6.976  0.7416E-01  0.3836E-01
  -6.966  0.7488E-01  0.3911E-01
  -6.956  0.7558E-01  0.3987E-01
  -6.946  0.7628E-01  0.4063E-01
  -6.936  0.7698E-01  0.4140E-01
  -6.926  0.7767E-01  0.4218E-01
  -6.916  0.7835E-01  0.4296E-01
  -6.906  0.7904E-01  0.4375E-01
  -6.896  0.7971E-01  0.4455E-01
  -6.886  0.8038E-01  0.4535E-01
  -6.876  0.8105E-01  0.4616E-01
  -6.866  0.8171E-01  0.4698E-01
  -6.856  0.8236E-01  0.4780E-01
  -6.846  0.8301E-01  0.4863E-01
  -6.836  0.8366E-01  0.4947E-01
  -6.826  0.8430E-01  0.5031E-01
  -6.816  0.8494E-01  0.5116E-01
  -6.806  0.8557E-01  0.5202E-01
  -6.796  0.8620E-01  0.5288E-01
  -6.786  0.8682E-01  0.5375E-01
  -6.776  0.8743E-01  0.5462E-01
  -6.766  0.8805E-01  0.5550E-01
  -6.756  0.8866E-01  0.5639E-01
  -6.746  0.8926E-01  0.5728E-01
  -6.736  0.8986E-01  0.5818E-01
  -6.726  0.9045E-01  0.5909E-01
  -6.716  0.9105E-01  0.6000E-01
  -6.706  0.9163E-01  0.6091E-01
  -6.696  0.9221E-01  0.6184E-01
  -6.686  0.9279E-01  0.6276E-01
  -6.676  0.9337E-01  0.6370E-01
  -6.666  0.9394E-01  0.6464E-01
  -6.656  0.9450E-01  0.6558E-01
  -6.646  0.9507E-01  0.6653E-01
  -6.636  0.9562E-01  0.6749E-01
  -6.626  0.9618E-01  0.6845E-01
  -6.616  0.9673E-01  0.6942E-01
  -6.606  0.9728E-01  0.7039E-01
  -6.596  0.9782E-01  0.7137E-01
  -6.586  0.9836E-01  0.7235E-01
  -6.576  0.9890E-01  0.7334E-01
  -6.566  0.9943E-01  0.7434E-01
  -6.556  0.9996E-01  0.7533E-01
  -6.546  0.1005E+00  0.7634E-01
  -6.536  0.1010E+00  0.7735E-01
  -6.526  0.1015E+00  0.7837E-01
  -6.516  0.1021E+00  0.7939E-01
  -6.506  0.1026E+00  0.8041E-01
  -6.496  0.1031E+00  0.8144E-01
  -6.486  0.1036E+00  0.8248E-01
  -6.476  0.1041E+00  0.8352E-01
  -6.466  0.1046E+00  0.8457E-01
  -6.456  0.1051E+00  0.8562E-01
  -6.446  0.1056E+00  0.8667E-01
  -6.436  0.1061E+00  0.8773E-01
  -6.426  0.1066E+00  0.8880E-01
  -6.416  0.1071E+00  0.8987E-01
  -6.406  0.1076E+00  0.9095E-01
  -6.396  0.1080E+00  0.9203E-01
  -6.386  0.1085E+00  0.9311E-01
  -6.376  0.1090E+00  0.9420E-01
  -6.366  0.1095E+00  0.9530E-01
  -6.356  0.1100E+00  0.9640E-01
  -6.346  0.1104E+00  0.9750E-01
  -6.336  0.1109E+00  0.9861E-01
  -6.326  0.1114E+00  0.9972E-01
  -6.316  0.1118E+00  0.1008E+00
  -6.306  0.1123E+00  0.1020E+00
  -6.296  0.1128E+00  0.1031E+00
  -6.286  0.1132E+00  0.1042E+00
  -6.276  0.1137E+00  0.1054E+00
  -6.266  0.1141E+00  0.1065E+00
  -6.256  0.1146E+00  0.1076E+00
  -6.246  0.1150E+00  0.1088E+00
  -6.236  0.1155E+00  0.1100E+00
  -6.226  0.1159E+00  0.1111E+00
  -6.216  0.1164E+00  0.1123E+00
  -6.206  0.1168E+00  0.1134E+00
  -6.196  0.1173E+00  0.1146E+00
  -6.186  0.1177E+00  0.1158E+00
  -6.176  0.1181E+00  0.1170E+00
  -6.166  0.1186E+00  0.1182E+00
  -6.156  0.1190E+00  0.1194E+00
  -6.146  0.1195E+00  0.1205E+00
  -6.136  0.1199E+00  0.1217E+00
  -6.126  0.1203E+00  0.1229E+00
  -6.116  0.1207E+00  0.1242E+00
  -6.106  0.1212E+00  0.1254E+00
  -6.096  0.1216E+00  0.1266E+00
  -6.086  0.1220E+00  0.1278E+00
  -6.076  0.1224E+00  0.1290E+00
  -6.066  0.1229E+00  0.1303E+00
  -6.056  0.1233E+00  0.1315E+00
  -6.046  0.1237E+00  0.1327E+00
  -6.036  0.1241E+00  0.1340E+00
  -6.026  0.1245E+00  0.1352E+00
  -6.016  0.1250E+00  0.1365E+00
  -6.006  0.1254E+00  0.1377E+00
  -5.996  0.1258E+00  0.1390E+00
  -5.986  0.1262E+00  0.1402E+00
  -5.976  0.1266E+00  0.1415E+00
  -5.966  0.1270E+00  0.1428E+00
  -5.956  0.1274E+00  0.1440E+00
  -5.946  0.1278E+00  0.1453E+00
  -5.936  0.1282E+00  0.1466E+00
  -5.926  0.1286E+00  0.1479E+00
  -5.916  0.1290E+00  0.1492E+00
  -5.906  0.1294E+00  0.1505E+00
  -5.896  0.1298E+00  0.1518E+00
  -5.886  0.1302E+00  0.1531E+00
  -5.876  0.1306E+00  0.1544E+00
  -5.866  0.1310E+00  0.1557E+00
  -5.856  0.1314E+00  0.1570E+00
  -5.846  0.1318E+00  0.1583E+00
  -5.836  0.1322E+00  0.1596E+00
  -5.826  0.1326E+00  0.1610E+00
  -5.816  0.1330E+00  0.1623E+00
  -5.806  0.1334E+00  0.1636E+00
  -5.796  0.1337E+00  0.1650E+00
  -5.786  0.1341E+00  0.1663E+00
  -5.776  0.1345E+00  0.1677E+00
  -5.766  0.1349E+00  0.1690E+00
  -5.756  0.1353E+00  0.1704E+00
  -5.746  0.1357E+00  0.1717E+00
  -5.736  0.1360E+00  0.1731E+00
  -5.726  0.1364E+00  0.1744E+00
  -5.716  0.1368E+00  0.1758E+00
  -5.706  0.1372E+00  0.1772E+00
  -5.696  0.1375E+00  0.1786E+00
  -5.686  0.1379E+00  0.1799E+00
  -5.676  0.1383E+00  0.1813E+00
  -5.666  0.1387E+00  0.1827E+00
  -5.656  0.1390E+00  0.1841E+00
  -5.646  0.1394E+00  0.1855E+00
  -5.636  0.1398E+00  0.1869E+00
  -5.626  0.1402E+00  0.1883E+00
  -5.616  0.1405E+00  0.1897E+00
  -5.606  0.1409E+00  0.1911E+00
  -5.596  0.1413E+00  0.1925E+00
  -5.586  0.1416E+00  0.1939E+00
  -5.576  0.1420E+00  0.1954E+00
  -5.566  0.1424E+00  0.1968E+00
  -5.556  0.1427E+00  0.1982E+00
  -5.546  0.1431E+00  0.1996E+00
  -5.536  0.1434E+00  0.2011E+00
  -5.526  0.1438E+00  0.2025E+00
  -5.516  0.1442E+00  0.2039E+00
  -5.506  0.1445E+00  0.2054E+00
  -5.496  0.1449E+00  0.2068E+00
  -5.486  0.1452E+00  0.2083E+00
  -5.476  0.1456E+00  0.2098E+00
  -5.466  0.1459E+00  0.2112E+00
  -5.456  0.1463E+00  0.2127E+00
  -5.446  0.1467E+00  0.2141E+00
  -5.436  0.1470E+00  0.2156E+00
  -5.426  0.1474E+00  0.2171E+00
  -5.416  0.1477E+00  0.2186E+00
  -5.406  0.1481E+00  0.2200E+00
  -5.396  0.1484E+00  0.2215E+00
  -5.386  0.1488E+00  0.2230E+00
  -5.376  0.1491E+00  0.2245E+00
  -5.366  0.1495E+00  0.2260E+00
  -5.356  0.1498E+00  0.2275E+00
  -5.346  0.1502E+00  0.2290E+00
  -5.336  0.1505E+00  0.2305E+00
  -5.326  0.1508E+00  0.2320E+00
  -5.316  0.1512E+00  0.2335E+00
  -5.306  0.1515E+00  0.2350E+00
  -5.296  0.1519E+00  0.2366E+00
  -5.286  0.1522E+00  0.2381E+00
  -5.276  0.1526E+00  0.2396E+00
  -5.266  0.1529E+00  0.2411E+00
  -5.256  0.1532E+00  0.2427E+00
  -5.246  0.1536E+00  0.2442E+00
  -5.236  0.1539E+00  0.2457E+00
  -5.226  0.1543E+00  0.2473E+00
  -5.216  0.1546E+00  0.2488E+00
  -5.206  0.1549E+00  0.2504E+00
  -5.196  0.1553E+00  0.2519E+00
  -5.186  0.1556E+00  0.2535E+00
  -5.176  0.1559E+00  0.2550E+00
  -5.166  0.1563E+00  0.2566E+00
  -5.156  0.1566E+00  0.2582E+00
  -5.146  0.1569E+00  0.2597E+00
  -5.136  0.1573E+00  0.2613E+00
  -5.126  0.1576E+00  0.2629E+00
  -5.116  0.1579E+00  0.2645E+00
  -5.106  0.1583E+00  0.2661E+00
  -5.096  0.1586E+00  0.2676E+00
  -5.086  0.1589E+00  0.2692E+00
  -5.076  0.1592E+00  0.2708E+00
  -5.066  0.1596E+00  0.2724E+00
  -5.056  0.1599E+00  0.2740E+00
  -5.046  0.1602E+00  0.2756E+00
  -5.036  0.1606E+00  0.2772E+00
  -5.026  0.1609E+00  0.2788E+00
  -5.016  0.1612E+00  0.2804E+00
  -5.006  0.1615E+00  0.2821E+00
  -4.996  0.1619E+00  0.2837E+00
  -4.986  0.1622E+00  0.2853E+00
  -4.976  0.1625E+00  0.2869E+00
  -4.966  0.1628E+00  0.2886E+00
  -4.956  0.1631E+00  0.2902E+00
  -4.946  0.1635E+00  0.2918E+00
  -4.936  0.1638E+00  0.2935E+00
  -4.926  0.1641E+00  0.2951E+00
  -4.916  0.1644E+00  0.2967E+00
  -4.906  0.1647E+00  0.2984E+00
  -4.896  0.1651E+00  0.3000E+00
  -4.886  0.1654E+00  0.3017E+00
  -4.876  0.1657E+00  0.3034E+00
  -4.866  0.1660E+00  0.3050E+00
  -4.856  0.1663E+00  0.3067E+00
  -4.846  0.1667E+00  0.3083E+00
  -4.836  0.1670E+00  0.3100E+00
  -4.826  0.1673E+00  0.3117E+00
  -4.816  0.1676E+00  0.3134E+00
  -4.806  0.1679E+00  0.3150E+00
  -4.796  0.1682E+00  0.3167E+00
  -4.786  0.1685E+00  0.3184E+00
  -4.776  0.1688E+00  0.3201E+00
  -4.766  0.1692E+00  0.3218E+00
  -4.756  0.1695E+00  0.3235E+00
  -4.746  0.1698E+00  0.3252E+00
  -4.736  0.1701E+00  0.3269E+00
  -4.726  0.1704E+00  0.3286E+00
  -4.716  0.1707E+00  0.3303E+00
  -4.706  0.1710E+00  0.3320E+00
  -4.696  0.1713E+00  0.3337E+00
  -4.686  0.1716E+00  0.3354E+00
  -4.676  0.1719E+00  0.3372E+00
  -4.666  0.1723E+00  0.3389E+00
  -4.656  0.1726E+00  0.3406E+00
  -4.646  0.1729E+00  0.3423E+00
  -4.636  0.1732E+00  0.3441E+00
  -4.626  0.1735E+00  0.3458E+00
  -4.616  0.1738E+00  0.3475E+00
  -4.606  0.1741E+00  0.3493E+00
  -4.596  0.1744E+00  0.3510E+00
  -4.586  0.1747E+00  0.3528E+00
  -4.576  0.1750E+00  0.3545E+00
  -4.566  0.1753E+00  0.3563E+00
  -4.556  0.1756E+00  0.3580E+00
  -4.546  0.1759E+00  0.3598E+00
  -4.536  0.1762E+00  0.3615E+00
  -4.526  0.1765E+00  0.3633E+00
  -4.516  0.1768E+00  0.3651E+00
  -4.506  0.1771E+00  0.3669E+00
  -4.496  0.1774E+00  0.3686E+00
  -4.486  0.1777E+00  0.3704E+00
  -4.476  0.1780E+00  0.3722E+00
  -4.466  0.1783E+00  0.3740E+00
  -4.456  0.1786E+00  0.3758E+00
  -4.446  0.1789E+00  0.3775E+00
  -4.436  0.1792E+00  0.3793E+00
  -4.426  0.1795E+00  0.3811E+00
  -4.416  0.1798E+00  0.3829E+00
  -4.406  0.1801E+00  0.3847E+00
  -4.396  0.1803E+00  0.3865E+00
  -4.386  0.1806E+00  0.3883E+00
  -4.376  0.1809E+00  0.3901E+00
  -4.366  0.1812E+00  0.3920E+00
  -4.356  0.1815E+00  0.3938E+00
  -4.346  0.1818E+00  0.3956E+00
  -4.336  0.1821E+00  0.3974E+00
  -4.326  0.1824E+00  0.3992E+00
  -4.316  0.1827E+00  0.4011E+00
  -4.306  0.1830E+00  0.4029E+00
  -4.296  0.1833E+00  0.4047E+00
  -4.286  0.1836E+00  0.4066E+00
  -4.276  0.1839E+00  0.4084E+00
  -4.266  0.1842E+00  0.4102E+00
  -4.256  0.1845E+00  0.4121E+00
  -4.246  0.1847E+00  0.4139E+00
  -4.236  0.1850E+00  0.4158E+00
  -4.226  0.1853E+00  0.4176E+00
  -4.216  0.1856E+00  0.4195E+00
  -4.206  0.1859E+00  0.4214E+00
  -4.196  0.1862E+00  0.4232E+00
  -4.186  0.1865E+00  0.4251E+00
  -4.176  0.1868E+00  0.4269E+00
  -4.166  0.1871E+00  0.4288E+00
  -4.156  0.1874E+00  0.4307E+00
  -4.146  0.1876E+00  0.4326E+00
  -4.136  0.1879E+00  0.4344E+00
  -4.126  0.1882E+00  0.4363E+00
  -4.116  0.1885E+00  0.4382E+00
  -4.106  0.1888E+00  0.4401E+00
  -4.096  0.1891E+00  0.4420E+00
  -4.086  0.1894E+00  0.4439E+00
  -4.076  0.1896E+00  0.4458E+00
  -4.066  0.1899E+00  0.4477E+00
  -4.056  0.1902E+00  0.4496E+00
  -4.046  0.1905E+00  0.4515E+00
  -4.036  0.1908E+00  0.4534E+00
  -4.026  0.1911E+00  0.4553E+00
  -4.016  0.1913E+00  0.4572E+00
  -4.006  0.1916E+00  0.4591E+00
  -3.996  0.1919E+00  0.4611E+00
  -3.986  0.1922E+00  0.4630E+00
  -3.976  0.1925E+00  0.4649E+00
  -3.966  0.1927E+00  0.4668E+00
  -3.956  0.1930E+00  0.4688E+00
  -3.946  0.1933E+00  0.4707E+00
  -3.936  0.1936E+00  0.4726E+00
  -3.926  0.1939E+00  0.4746E+00
  -3.916  0.1941E+00  0.4765E+00
  -3.906  0.1944E+00  0.4785E+00
  -3.896  0.1947E+00  0.4804E+00
  -3.886  0.1950E+00  0.4823E+00
  -3.876  0.1952E+00  0.4843E+00
  -3.866  0.1955E+00  0.4863E+00
  -3.856  0.1958E+00  0.4882E+00
  -3.846  0.1961E+00  0.4902E+00
  -3.836  0.1963E+00  0.4921E+00
  -3.826  0.1966E+00  0.4941E+00
  -3.816  0.1969E+00  0.4961E+00
  -3.806  0.1971E+00  0.4980E+00
  -3.796  0.1974E+00  0.5000E+00
  -3.786  0.1977E+00  0.5020E+00
  -3.776  0.1980E+00  0.5040E+00
  -3.766  0.1982E+00  0.5060E+00
  -3.756  0.1985E+00  0.5079E+00
  -3.746  0.1988E+00  0.5099E+00
  -3.736  0.1991E+00  0.5119E+00
  -3.726  0.1993E+00  0.5139E+00
  -3.716  0.1996E+00  0.5159E+00
  -3.706  0.1999E+00  0.5179E+00
  -3.696  0.2001E+00  0.5199E+00
  -3.686  0.2004E+00  0.5219E+00
  -3.676  0.2007E+00  0.5239E+00
  -3.666  0.2010E+00  0.5259E+00
  -3.656  0.2012E+00  0.5279E+00
  -3.646  0.2015E+00  0.5300E+00
  -3.636  0.2018E+00  0.5320E+00
  -3.626  0.2021E+00  0.5340E+00
  -3.616  0.2023E+00  0.5360E+00
  -3.606  0.2026E+00  0.5380E+00
  -3.596  0.2029E+00  0.5401E+00
  -3.586  0.2032E+00  0.5421E+00
  -3.576  0.2034E+00  0.5441E+00
  -3.566  0.2037E+00  0.5462E+00
  -3.556  0.2040E+00  0.5482E+00
  -3.546  0.2043E+00  0.5503E+00
  -3.536  0.2045E+00  0.5523E+00
  -3.526  0.2048E+00  0.5544E+00
  -3.516  0.2051E+00  0.5564E+00
  -3.506  0.2053E+00  0.5585E+00
  -3.496  0.2056E+00  0.5605E+00
  -3.486  0.2059E+00  0.5626E+00
  -3.476  0.2062E+00  0.5646E+00
  -3.466  0.2064E+00  0.5667E+00
  -3.456  0.2067E+00  0.5688E+00
  -3.446  0.2070E+00  0.5708E+00
  -3.436  0.2073E+00  0.5729E+00
  -3.426  0.2075E+00  0.5750E+00
  -3.416  0.2078E+00  0.5771E+00
  -3.406  0.2081E+00  0.5791E+00
  -3.396  0.2083E+00  0.5812E+00
  -3.386  0.2086E+00  0.5833E+00
  -3.376  0.2089E+00  0.5854E+00
  -3.366  0.2091E+00  0.5875E+00
  -3.356  0.2094E+00  0.5896E+00
  -3.346  0.2097E+00  0.5917E+00
  -3.336  0.2099E+00  0.5938E+00
  -3.326  0.2102E+00  0.5959E+00
  -3.316  0.2105E+00  0.5980E+00
  -3.306  0.2107E+00  0.6001E+00
  -3.296  0.2110E+00  0.6022E+00
  -3.286  0.2112E+00  0.6043E+00
  -3.276  0.2115E+00  0.6064E+00
  -3.266  0.2118E+00  0.6085E+00
  -3.256  0.2120E+00  0.6107E+00
  -3.246  0.2123E+00  0.6128E+00
  -3.236  0.2125E+00  0.6149E+00
  -3.226  0.2128E+00  0.6170E+00
  -3.216  0.2130E+00  0.6192E+00
  -3.206  0.2133E+00  0.6213E+00
